

Jacobi elliptic sine amplitude function sn(k,u)
  -1.000000000000000e+01   5.440211108893698e-01  -1.141901234607504e-01  -9.554033334243750e-01   3.459394732414839e-01  -9.999999958776927e-01
  -9.950000000000001e+00   5.014051281791989e-01  -1.635792679156892e-01  -9.650692828043398e-01   3.894950390143400e-01  -9.999999954441460e-01
  -9.900000000000000e+00   4.575358937753213e-01  -2.124630727816838e-01  -9.734930796454727e-01   4.314666714446264e-01  -9.999999949650026e-01
  -9.850000000000001e+00   4.125230579170943e-01  -2.606953925603738e-01  -9.807085650186185e-01   4.717505606923389e-01  -9.999999944354673e-01
  -9.800000000000001e+00   3.664791292519284e-01  -3.081357483360337e-01  -9.867456534266410e-01   5.102663511064705e-01  -9.999999938502403e-01
  -9.750000000000000e+00   3.195191936222737e-01  -3.546503895524805e-01  -9.916300364822459e-01   5.469565281498114e-01  -9.999999932034643e-01
  -9.700000000000001e+00   2.717606264109442e-01  -4.001132082876805e-01  -9.953829448467554e-01   5.817853031900686e-01  -9.999999924886664e-01
  -9.650000000000000e+00   2.233227991637839e-01  -4.444064909889023e-01  -9.980209625415539e-01   6.147370945777617e-01  -9.999999916986927e-01
  -9.600000000000001e+00   1.743267812229814e-01  -4.874214980535054e-01  -9.995558886474142e-01   6.458147073198366e-01  -9.999999908256365e-01
  -9.550000000000001e+00   1.248950371167523e-01  -5.290588670868650e-01  -9.999946424320898e-01   6.750373112527602e-01  -9.999999898607603e-01
  -9.500000000000000e+00   7.515112046180930e-02  -5.692288408967785e-01  -9.993392090574492e-01   7.024383102330298e-01  -9.999999887944072e-01
  -9.450000000000001e+00   2.521936514366050e-02  -6.078513260831792e-01  -9.975866241843120e-01   7.280631839417803e-01  -9.999999876159047e-01
  -9.400000000000000e+00  -2.477542545335776e-02  -6.448557922856220e-01  -9.947289969910003e-01   7.519673708552960e-01  -9.999999863134581e-01
  -9.350000000000000e+00  -7.470829038953478e-02  -6.801810256410645e-01  -9.907535723280849e-01   7.742142470225020e-01  -9.999999848740319e-01
  -9.300000000000001e+00  -1.244544235070617e-01  -7.137747527135424e-01  -9.856428339253538e-01   7.948732415436219e-01  -9.999999832832199e-01
  -9.250000000000000e+00  -1.738894853804336e-01  -7.455931530662316e-01  -9.793746517249462e-01   8.140181168320285e-01  -9.999999815251008e-01
  -9.200000000000001e+00  -2.228899141002459e-01  -7.756002797795510e-01  -9.719224775110584e-01   8.317254303791068e-01  -9.999999795820788e-01
  -9.150000000000000e+00  -2.713332341136327e-01  -8.037674076359622e-01  -9.632555940107780e-01   8.480731851162649e-01  -9.999999774347073e-01
  -9.100000000000000e+00  -3.190983623493521e-01  -8.300723284790756e-01  -9.533394235151087e-01   8.631396676770723e-01  -9.999999750614947e-01
  -9.050000000000001e+00  -3.660659108624110e-01  -8.544986125156794e-01  -9.421359027686063e-01   8.770024678612427e-01  -9.999999724386893e-01
  -9.000000000000000e+00  -4.121184852417566e-01  -8.770348531765019e-01  -9.296039313459667e-01   8.897376682471246e-01  -9.999999695400410e-01
  -8.950000000000001e+00  -4.571409780351542e-01  -8.976739116983219e-01  -9.156999009108689e-01   9.014191899873658e-01  -9.999999663365392e-01
  -8.900000000000000e+00  -5.010208564578846e-01  -9.164121759442193e-01  -9.003783125641091e-01   9.121182791223004e-01  -9.999999627961221e-01
  -8.850000000000000e+00  -5.436484436660883e-01  -9.332488462375044e-01  -8.835924888555956e-01   9.219031170221197e-01  -9.999999588833562e-01
  -8.800000000000001e+00  -5.849171928917617e-01  -9.481852592317616e-01  -8.652953858751401e-01   9.308385385996056e-01  -9.999999545590812e-01
  -8.750000000000000e+00  -6.247239537541924e-01  -9.612242591423117e-01  -8.454405090685705e-01   9.389858425204560e-01  -9.999999497800182e-01
  -8.700000000000001e+00  -6.629692300821820e-01  -9.723696240746977e-01  -8.239829339747798e-01   9.464026786067877e-01  -9.999999444983367e-01
  -8.650000000000000e+00  -6.995574286026680e-01  -9.816255537390701e-01  -8.008804298890916e-01   9.531429988397641e-01  -9.999999386611760e-01
  -8.600000000000000e+00  -7.343970978741133e-01  -9.889962235560508e-01  -7.760946804999788e-01   9.592570597068344e-01  -9.999999322101157e-01
  -8.550000000000001e+00  -7.674011568674873e-01  -9.944854090469183e-01  -7.495925908310599e-01   9.647914650215390e-01  -9.999999250805917e-01
  -8.500000000000000e+00  -7.984871126234903e-01  -9.980961834541819e-01  -7.213476644137801e-01   9.697892397056930e-01  -9.999999172012490e-01
  -8.450000000000001e+00  -8.275772664419830e-01  -9.998306907435848e-01  -6.913414286503722e-01   9.742899263207641e-01  -9.999999084932288e-01
  -8.400000000000000e+00  -8.545989080882804e-01  -9.996899954731610e-01  -6.595648800114454e-01   9.783296973386063e-01  -9.999998988693781e-01
  -8.350000000000000e+00  -8.794844975308649e-01  -9.976740104510510e-01  -6.260199143426364e-01   9.819414772347345e-01  -9.999998882333784e-01
  -8.300000000000001e+00  -9.021718337562933e-01  -9.937815026089194e-01  -5.907207015094073e-01   9.851550694626546e-01  -9.999998764787810e-01
  -8.250000000000000e+00  -9.226042102393402e-01  -9.880101770567324e-01  -5.536949583438822e-01   9.879972842246729e-01  -9.999998634879418e-01
  -8.200000000000001e+00  -9.407305566797726e-01  -9.803568388208396e-01  -5.149850698836358e-01   9.904920636972293e-01  -9.999998491308444e-01
  -8.150000000000000e+00  -9.565055666515091e-01  -9.708176312642470e-01  -4.746490067440699e-01   9.926606020042772e-01  -9.999998332637982e-01
  -8.100000000000000e+00  -9.698898108450863e-01  -9.593883496108330e-01  -4.327609866567761e-01   9.945214577696977e-01  -9.999998157280003e-01
  -8.050000000000001e+00  -9.808498356203995e-01  -9.460648273120248e-01  -3.894118311728212e-01   9.960906575293333e-01  -9.999997963479469e-01
  -8.000000000000000e+00  -9.893582466233818e-01  -9.308433921779137e-01  -3.447089745732959e-01   9.973817886553790e-01  -9.999997749296758e-01
  -7.950000000000000e+00  -9.953937772576199e-01  -9.137213882237937e-01  -2.987760912548110e-01   9.984060807510049e-01  -9.999997512588262e-01
  -7.900000000000000e+00  -9.989413418397720e-01  -8.946977580447985e-01  -2.517523201250957e-01   9.991724747212118e-01  -9.999997250984922e-01
  -7.850000000000001e+00  -9.999920733059188e-01  -8.737736792227396e-01  -2.037910794375836e-01   9.996876789265259e-01  -9.999996961868526e-01
  -7.800000000000001e+00  -9.985433453746050e-01  -8.509532467993850e-01  -1.550584823171977e-01   9.999562119882004e-01  -9.999996642345503e-01
  -7.750000000000000e+00  -9.945987791111761e-01  -8.262441922419735e-01  -1.057313810344065e-01   9.999804319454145e-01  -9.999996289217963e-01
  -7.700000000000000e+00  -9.881682338770004e-01  -7.996586276175328e-01  -5.599508573387584e-02   9.997605515744719e-01  -9.999995898951690e-01
  -7.650000000000000e+00  -9.792677826862000e-01  -7.712138019365132e-01  -6.040819585784862e-03   9.992946397746091e-01  -9.999995467640772e-01
  -7.600000000000001e+00  -9.679196720314865e-01  -7.409328548936513e-01   4.393701400867644e-02   9.985786090119346e-01  -9.999994990968510e-01
  -7.550000000000001e+00  -9.541522662795151e-01  -7.088455516105323e-01   9.374366652694943e-02   9.976061888992328e-01  -9.999994464164215e-01
  -7.500000000000000e+00  -9.379999767747389e-01  -6.749889805691442e-01   1.431868905894668e-01   9.963688860818870e-01  -9.999993881955461e-01
  -7.450000000000000e+00  -9.195031758289707e-01  -6.394081958277464e-01   1.920797056118029e-01   9.948559307061323e-01  -9.999993238515318e-01
  -7.400000000000000e+00  -8.987080958116269e-01  -6.021567839432015e-01   2.402429954446416e-01   9.930542098726476e-01  -9.999992527404032e-01
  -7.350000000000001e+00  -8.756667135928826e-01  -5.632973358992217e-01   2.875078595825189e-01   9.909481886338799e-01  -9.999991741504578e-01
  -7.300000000000001e+00  -8.504366206285648e-01  -5.229018048594249e-01   3.337176523898506e-01   9.885198192857664e-01  -9.999990872951430e-01
  -7.250000000000000e+00  -8.230808790115055e-01  -4.810517318106399e-01   3.787296605342090e-01   9.857484399424612e-01  -9.999989913051835e-01
  -7.200000000000000e+00  -7.936678638491531e-01  -4.378383231903973e-01   4.224163862448950e-01   9.826106636756970e-01  -9.999988852198828e-01
  -7.150000000000000e+00  -7.622710923614112e-01  -3.933623674210659e-01   4.646664218916626e-01   9.790802598584490e-01  -9.999987679775066e-01
  -7.100000000000001e+00  -7.289690401258765e-01  -3.477339808757998e-01   5.053849185343023e-01   9.751280297859278e-01  -9.999986384046582e-01
  -7.050000000000001e+00  -6.938449449297643e-01  -3.010721781033513e-01   5.444936665278614e-01   9.707216791661193e-01  -9.999984952045338e-01
  -7.000000000000000e+00  -6.569865987187891e-01  -2.535042660142555e-01   5.819308192192623e-01   9.658256906873407e-01  -9.999983369439447e-01
  -6.950000000000000e+00  -6.184861281630240e-01  -2.051650670059466e-01   6.176503007544690e-01   9.604012005909489e-01  -9.999981620389733e-01
  -6.900000000000000e+00  -5.784397643882001e-01  -1.561959814632592e-01   6.516209458265171e-01   9.544058840111139e-01  -9.999979687391211e-01
  -6.850000000000001e+00  -5.369476024480118e-01  -1.067439054669563e-01   6.838254228836806e-01   9.477938547952435e-01  -9.999977551097893e-01
  -6.800000000000001e+00  -4.941133511386089e-01  -5.696002461375232e-02   7.142589931426203e-01   9.405155865886415e-01  -9.999975190129178e-01
  -6.750000000000000e+00  -4.500440737806176e-01  -6.998509335376380e-03   7.429281561231736e-01   9.325178631493954e-01  -9.999972580855863e-01
  -6.700000000000000e+00  -4.048499206165983e-01   4.298485923985154e-02   7.698492288396421e-01   9.237437671397396e-01  -9.999969697163670e-01
  -6.650000000000000e+00  -3.586438534928004e-01   9.283410121515340e-02   7.950469007818647e-01   9.141327179921258e-01  -9.999966510191890e-01
  -6.600000000000001e+00  -3.115413635133787e-01   1.423944545317555e-01   8.185528009182694e-01   9.036205708309577e-01  -9.999962988044543e-01
  -6.550000000000001e+00  -2.636601823727792e-01   1.915137629628944e-01   8.404041066237410e-01   8.921397897851268e-01  -9.999959095471169e-01
  -6.500000000000000e+00  -2.151199880878155e-01   2.400438032995333e-01   8.606422180764215e-01   8.796197102705970e-01  -9.999954793514042e-01
  -6.450000000000000e+00  -1.660421058649572e-01   2.878415218381692e-01   8.793115155949268e-01   8.659869058491667e-01  -9.999950039118287e-01
  -6.400000000000000e+00  -1.165492048504936e-01   3.347701536666901e-01   8.964582118309121e-01   8.511656759436532e-01  -9.999944784700996e-01
  -6.350000000000001e+00  -6.676499152155635e-02   3.807002025194384e-01   9.121293058414373e-01   8.350786708456288e-01  -9.999938977675026e-01
  -6.300000000000001e+00  -1.681390048435060e-02   4.255102639051105e-01   9.263716419214972e-01   8.176476698952921e-01  -9.999932559922726e-01
  -6.250000000000000e+00   3.317921654755682e-02   4.690876795429644e-01   9.392310727025974e-01   7.987945272254421e-01  -9.999925467214317e-01
  -6.200000000000000e+00   8.308940281749640e-02   5.113290166099598e-01   9.507517233980275e-01   7.784422968091012e-01  -9.999917628565104e-01
  -6.150000000000000e+00   1.327919088525167e-01   5.521403706513207e-01   9.609753521484407e-01   7.565165444994219e-01  -9.999908965525104e-01
  -6.100000000000001e+00   1.821625042720950e-01   5.914374960137779e-01   9.699408001219194e-01   7.329468490900923e-01  -9.999899391393965e-01
  -6.050000000000001e+00   2.310777882993914e-01   6.291457721380697e-01   9.776835242705009e-01   7.076684869962110e-01  -9.999888810353327e-01
  -6.000000000000000e+00   2.794154981989259e-01   6.652000178554013e-01   9.842352053569937e-01   6.806242858917122e-01  -9.999877116507956e-01
  -5.950000000000000e+00   3.270548148697406e-01   6.995441688824917e-01   9.896234239615362e-01   6.517666216060279e-01  -9.999864192826038e-01
  -5.900000000000000e+00   3.738766648302360e-01   7.321308359622685e-01   9.938713975826479e-01   6.210595200252843e-01  -9.999849909968058e-01
  -5.850000000000001e+00   4.197640178398589e-01   7.629207625585466e-01   9.969977725967701e-01   5.884808121291462e-01  -9.999834124992523e-01
  -5.800000000000001e+00   4.646021794137566e-01   7.918822017287734e-01   9.990164656769658e-01   5.540242763423062e-01  -9.999816679925603e-01
  -5.750000000000000e+00   5.082790774992584e-01   8.189902318448844e-01   9.999365502479809e-01   5.177016890691090e-01  -9.999797400180382e-01
  -5.700000000000000e+00   5.506855425976376e-01   8.442260303060516e-01   9.997621846320786e-01   4.795446928277823e-01  -9.999776092809898e-01
  -5.650000000000000e+00   5.917155806310094e-01   8.675761233982078e-01   9.984925796856453e-01   4.396063831965078e-01  -9.999752544576511e-01
  -5.600000000000001e+00   6.312666378723208e-01   8.890316291175760e-01   9.961220049136750e-01   3.979625122776229e-01  -9.999726519818308e-01
  -5.550000000000001e+00   6.692398572762613e-01   9.085875081998183e-01   9.926398332545716e-01   3.547122089326421e-01  -9.999697758091181e-01
  -5.500000000000000e+00   7.055403255703919e-01   9.262418368850821e-01   9.880306259296202e-01   3.099781257055720e-01  -9.999665971563038e-01
  -5.450000000000000e+00   7.400773104888944e-01   9.419951131919764e-01   9.822742599280121e-01   2.639059397069690e-01  -9.999630842134086e-01
  -5.400000000000000e+00   7.727644875559871e-01   9.558496067450385e-01   9.753461018252401e-01   2.166631596665514e-01  -9.999592018254402e-01
  -5.350000000000001e+00   8.035201558521553e-01   9.678087605590847e-01   9.672172326816033e-01   1.684372229534740e-01  -9.999549111406991e-01
  -5.300000000000001e+00   8.322674422239008e-01   9.778766516722728e-01   9.578547297041418e-01   1.194329028311961e-01  -9.999501692221211e-01
  -5.250000000000000e+00   8.589344934265920e-01   9.860575161645219e-01   9.472220111378260e-01   6.986908500395947e-02  -9.999449286177708e-01
  -5.200000000000000e+00   8.834546557201531e-01   9.923553429117715e-01   9.352792514299009e-01   1.997501050453328e-02  -9.999391368861988e-01
  -5.150000000000000e+00   9.057666414687044e-01   9.967735394096434e-01   9.219838740254106e-01  -3.001388419051362e-02  -9.999327360719227e-01
  -5.100000000000001e+00   9.258146823277321e-01   9.993146721420922e-01   9.072911291336327e-01  -7.986037244764664e-02  -9.999256621257943e-01
  -5.050000000000001e+00   9.435486686359064e-01   9.999802832525985e-01   8.911547633779997e-01  -1.293299142811568e-01  -9.999178442644705e-01
  -5.000000000000000e+00   9.589242746631385e-01   9.987707846716765e-01   8.735277873244747e-01  -1.781950259269452e-01  -9.999092042625951e-01
  -4.950000000000000e+00   9.719030694018208e-01   9.956854303340787e-01   8.543633453922749e-01  -2.262393707216735e-01  -9.998996556706324e-01
  -4.900000000000000e+00   9.824526126243325e-01   9.907223666479265e-01   8.336156905081642e-01  -2.732614185097895e-01  -9.998891029505544e-01
  -4.850000000000001e+00   9.905465359667132e-01   9.838787609198466e-01   8.112412630058018e-01  -3.190775489966280e-01  -9.998774405207668e-01
  -4.800000000000001e+00   9.961646088358406e-01   9.751510069584231e-01   7.871998696522052e-01  -3.635245094052540e-01  -9.998645517007605e-01
  -4.750000000000000e+00   9.992927889753780e-01   9.645350065371053e-01   7.614559542963945e-01  -4.064611752149593e-01  -9.998503075449787e-01
  -4.700000000000000e+00   9.999232575641008e-01   9.520265247637704e-01   7.339799465206811e-01  -4.477696013191712e-01  -9.998345655542966e-01
  -4.650000000000000e+00   9.980544387588794e-01   9.376216166478899e-01   7.047496689340522e-01  -4.873553866110165e-01  -9.998171682522957e-01
  -4.600000000000001e+00   9.936910036334645e-01   9.213171212537959e-01   6.737517775542784e-01  -5.251474053746076e-01  -9.997979416121845e-01
  -4.550000000000000e+00   9.868438585032365e-01   9.031112187631565e-01   6.409832033376737e-01  -5.610969823193251e-01  -9.997766933187409e-01
  -4.500000000000000e+00   9.775301176650970e-01   8.830040445340449e-01   6.064525566754784e-01  -5.951766038889679e-01  -9.997532108480275e-01
  -4.450000000000000e+00   9.657730606206388e-01   8.609983528415572e-01   5.701814510074226e-01  -6.273782666476001e-01  -9.997272593458411e-01
  -4.400000000000000e+00   9.516020738895160e-01   8.371002214323436e-01   5.322056970960692e-01  -6.577115647766505e-01  -9.996985792838805e-01
  -4.350000000000001e+00   9.350525775584494e-01   8.113197863538809e-01   4.925763164890869e-01  -6.862016141535963e-01  -9.996668838704453e-01
  -4.300000000000000e+00   9.161659367494549e-01   7.836719947757220e-01   4.513603217994322e-01  -7.128869015093874e-01  -9.996318561900731e-01
  -4.250000000000000e+00   8.949893582285835e-01   7.541773617676610e-01   4.086412131332560e-01  -7.378171352291020e-01  -9.995931460438896e-01
  -4.200000000000000e+00   8.715757724135882e-01   7.228627153179039e-01   3.645191446603693e-01  -7.610511608302108e-01  -9.995503664595334e-01
  -4.150000000000000e+00   8.459837010754465e-01   6.897619123567610e-01   3.191107231504418e-01  -7.826549901982593e-01  -9.995030898363213e-01
  -4.100000000000001e+00   8.182771110644108e-01   6.549165073031957e-01   2.725484112627988e-01  -8.026999802085645e-01  -9.994508436877974e-01
  -4.050000000000000e+00   7.885252544261950e-01   6.183763537851926e-01   2.249795221863901e-01  -8.212611840814823e-01  -9.993931059399421e-01
  -4.000000000000000e+00   7.568024953079282e-01   5.802001198136740e-01   1.765648083045935e-01  -8.384158881275899e-01  -9.993292997390670e-01
  -3.950000000000000e+00   7.231881240865121e-01   5.404556969206952e-01   1.274766640636320e-01  -8.542423376436783e-01  -9.992587877187472e-01
  -3.900000000000000e+00   6.877661591839741e-01   4.992204846979603e-01   7.789698108968852e-02  -8.688186486563120e-01  -9.991808656700280e-01
  -3.850000000000000e+00   6.506251370651673e-01   4.565815338593738e-01   2.801471062468115e-02  -8.822218968875296e-01  -9.990947555535189e-01
  -3.800000000000000e+00   6.118578909427193e-01   4.126355334363240e-01  -2.197679670097401e-02  -8.945273715653760e-01  -9.989995977858409e-01
  -3.750000000000000e+00   5.715613187423437e-01   3.674886309904122e-01  -7.188259201331997e-02  -9.058079793025549e-01  -9.988944427261528e-01
  -3.700000000000000e+00   5.298361409084934e-01   3.212560787420394e-01  -1.215089809393954e-01  -9.161337819844002e-01  -9.987782412811312e-01
  -3.650000000000000e+00   4.867866486556998e-01   2.740617031606316e-01  -1.706663358317907e-01  -9.255716522107967e-01  -9.986498345387343e-01
  -3.600000000000000e+00   4.425204432948525e-01   2.260372006897652e-01  -2.191717775548452e-01  -9.341850301113860e-01  -9.985079423323266e-01
  -3.550000000000000e+00   3.971481672859602e-01   1.773212676889586e-01  -2.668516439360676e-01  -9.420337661106919e-01  -9.983511506272034e-01
  -3.500000000000000e+00   3.507832276896198e-01   1.280585781286876e-01  -3.135436732556253e-01  -9.491740353002648e-01  -9.981778976111987e-01
  -3.450000000000000e+00   3.035415127084293e-01   7.839862781846267e-02  -3.590988457635412e-01  -9.556583103488920e-01  -9.979864583598287e-01
  -3.400000000000000e+00   2.555411020268317e-01   2.849446871535094e-02  -4.033828430532786e-01  -9.615353812476123e-01  -9.977749279342794e-01
  -3.350000000000000e+00   2.069019716733998e-01  -2.149863910005723e-02  -4.462771029506151e-01  -9.668504115669474e-01  -9.975412027574452e-01
  -3.300000000000000e+00   1.577456941432487e-01  -7.142462710356590e-02  -4.876794651847761e-01  -9.716450222440900e-01  -9.972829600991421e-01
  -3.250000000000000e+00   1.081951345301084e-01  -1.211280370208895e-01  -5.275044194089078e-01  -9.759573951800663e-01  -9.969976354865260e-01
  -3.200000000000000e+00   5.837414342758009e-02  -1.704554251638338e-01  -5.656829812559779e-01  -9.798223900875743e-01  -9.966823978396512e-01
